Temperature[C],Humidity[%],Pressure[hPa],CO(V),Fire Alarm
20.0,57.36,939.735,0.351,0
20.015,56.67,939.744,0.391,0
20.029,55.96,939.738,0.749,0
20.044,55.28,939.736,0.381,0
20.059,54.69,939.744,0.394,0
20.073,54.12,939.725,0.799,0
20.088,53.61,939.738,0.622,0
20.103,53.2,939.758,0.186,0
20.117,52.81,939.758,0.63,0
20.132,52.46,939.756,0.771,0
20.146,52.15,939.757,0.49,0
20.161,51.84,939.754,0.15,0
20.175,51.62,939.755,0.153,0
20.19,51.39,939.758,0.178,0
20.204,51.17,939.742,0.957,0
20.219,50.99,939.741,0.719,0
20.233,50.86,939.758,0.393,0
20.248,50.66,939.764,0.763,0
20.262,50.49,939.761,0.707,0
20.277,50.27,939.752,0.113,0
20.291,50.15,939.729,0.839,0
20.305,50.02,939.741,0.711,0
20.32,49.96,939.756,0.499,0
20.334,49.83,939.764,0.382,0
20.348,49.76,939.77,0.241,0
20.363,49.65,939.774,0.716,0
20.377,49.58,939.771,0.461,0
20.391,49.37,939.771,0.402,0
20.406,49.58,939.77,0.798,0
20.42,50.11,939.775,0.839,0
20.434,50.68,939.772,0.43,0
20.448,51.23,939.772,0.242,0
20.462,51.77,939.762,0.584,0
20.477,52.28,939.769,0.636,0
20.491,52.74,939.747,0.095,0
20.505,53.12,939.754,0.692,0
20.519,53.5,939.755,0.091,0
20.533,53.84,939.747,0.726,0
20.547,54.13,939.757,0.149,0
20.561,54.41,939.761,0.171,0
20.575,54.67,939.766,0.405,0
20.589,54.91,939.765,0.678,0
20.603,55.08,939.761,0.483,0
20.617,55.28,939.757,0.869,0
20.631,55.49,939.762,0.356,0
20.645,55.86,939.754,0.722,0
20.659,55.99,939.754,0.09,0
20.673,56.11,939.745,0.09,0
20.687,56.18,939.741,0.814,0
20.701,56.32,939.722,0.527,0
20.715,56.36,939.711,0.457,0
20.729,56.47,939.701,0.292,0
20.743,56.55,939.693,0.401,0
20.756,56.6,939.707,0.426,0
20.77,56.66,939.718,0.937,0
20.784,56.91,939.722,0.579,0
20.798,56.64,939.721,0.441,0
20.812,56.06,939.709,0.29,0
20.825,55.38,939.714,0.773,0
20.839,54.75,939.718,0.369,0
20.853,54.14,939.719,0.597,0
20.867,53.6,939.734,0.562,0
20.88,53.11,939.746,0.597,0
20.894,52.66,939.752,0.666,0
20.908,52.27,939.76,0.521,0
20.921,51.94,939.758,0.27,0
20.935,51.66,939.762,0.353,0
20.948,51.38,939.779,0.583,0
20.962,51.16,939.767,0.952,0
20.976,50.92,939.771,0.041,0
20.989,50.72,939.77,0.49,0
21.003,50.55,939.773,0.31,0
21.016,50.38,939.763,0.059,0
21.03,50.24,939.772,0.386,0
21.043,50.1,939.776,0.081,0
21.057,49.93,939.779,0.636,0
21.07,49.88,939.777,0.214,0
21.084,49.74,939.781,0.844,0
21.097,49.67,939.778,0.064,0
21.11,49.55,939.764,0.976,0
21.124,49.47,939.772,0.092,0
21.137,49.44,939.777,0.517,0
21.15,49.39,939.776,0.223,0
21.164,49.31,939.784,0.075,0
21.177,49.21,939.787,0.609,0
21.19,49.07,939.779,0.702,0
21.204,49.29,939.784,0.429,0
21.217,49.81,939.787,0.703,0
21.23,50.45,939.782,0.531,0
21.243,51.03,939.781,0.832,0
21.257,51.56,939.775,0.227,0
21.27,52.04,939.78,0.999,0
21.283,52.54,939.788,0.143,0
21.296,52.92,939.791,0.657,0
21.309,53.32,939.792,0.65,0
21.323,53.65,939.799,0.361,0
21.336,53.96,939.801,0.459,0
21.349,54.25,939.795,0.002,0
21.362,54.52,939.799,0.72,0
21.375,54.74,939.784,0.769,0
21.388,54.95,939.796,0.029,0
21.401,55.16,939.775,0.134,0
21.414,55.32,939.782,0.504,0
21.427,55.53,939.788,0.656,0
21.44,55.64,939.787,0.452,0
21.453,55.81,939.789,0.207,0
21.466,55.9,939.792,0.673,0
21.479,56.07,939.794,0.459,0
21.492,56.18,939.798,0.612,0
21.505,56.24,939.795,0.208,0
21.518,56.37,939.8,0.988,0
21.531,56.42,939.803,0.03,0
21.543,56.5,939.804,0.35,0
21.556,56.62,939.809,0.998,0
21.569,56.69,939.809,0.545,0
21.582,56.91,939.8,0.168,0
21.595,56.65,939.807,0.181,0
21.607,56.13,939.806,0.999,0
21.62,55.44,939.795,0.278,0
21.633,54.78,939.799,0.325,0
21.646,54.24,939.802,0.166,0
21.658,53.68,939.791,0.105,0
21.671,53.18,939.792,0.263,0
21.684,52.75,939.798,0.443,0
21.696,52.37,939.798,0.327,0
21.709,52.01,939.804,0.223,0
21.722,51.72,939.802,0.156,0
21.734,51.45,939.803,0.668,0
21.747,51.18,939.805,0.786,0
21.76,51.01,939.8,0.16,0
21.772,50.78,939.788,0.788,0
21.785,50.64,939.784,0.882,0
21.797,50.46,939.782,0.412,0
21.81,50.3,939.773,0.642,0
21.822,50.16,939.782,0.4,0
21.835,50.04,939.796,0.611,0
21.847,49.93,939.791,0.08,0
21.86,49.85,939.792,0.563,0
21.872,49.76,939.806,0.385,0
21.885,49.64,939.821,0.411,0
21.897,49.58,939.815,0.019,0
21.909,49.5,939.805,0.022,0
21.922,49.42,939.805,0.827,0
21.934,49.38,939.803,0.093,0
21.946,49.33,939.819,0.878,0
21.959,49.16,939.812,0.425,0
21.971,49.32,939.817,0.523,0
21.983,49.87,939.813,0.855,0
21.996,50.49,939.81,0.457,0
22.008,51.08,939.818,0.745,0
22.02,51.65,939.832,0.5,0
22.032,52.13,939.82,0.944,0
22.044,52.62,939.815,0.632,0
22.057,53.02,939.815,0.006,0
22.069,53.45,939.817,0.969,0
22.081,53.75,939.817,0.518,0
22.093,54.05,939.811,0.973,0
22.105,54.36,939.809,0.795,0
22.117,54.59,939.813,0.941,0
22.13,54.83,939.81,0.393,0
22.142,55.03,939.794,0.048,0
22.154,55.25,939.791,0.263,0
22.166,55.46,939.791,0.856,0
22.178,55.61,939.799,0.912,0
22.19,55.73,939.805,0.427,0
22.202,55.88,939.812,0.622,0
22.214,56.02,939.812,0.75,0
22.226,56.14,939.821,0.179,0
22.238,56.26,939.823,0.818,0
22.25,56.32,939.826,0.476,0
22.262,56.43,939.815,0.339,0
22.273,56.53,939.808,0.741,0
22.285,56.63,939.808,0.103,0
22.297,56.69,939.81,0.357,0
22.309,56.76,939.82,0.166,0
22.321,56.99,939.817,0.353,0
22.333,56.77,939.815,0.227,0
22.344,55.02,939.817,0.807,0
22.356,54.41,939.809,0.16,0
22.368,53.84,939.803,0.487,0
22.38,53.38,939.81,0.848,0
22.392,51.95,939.809,0.637,0
22.403,51.66,939.81,0.572,0
22.415,51.38,939.814,0.865,0
22.427,51.19,939.815,0.676,0
22.438,50.83,939.806,0.066,0
22.45,50.65,939.798,0.883,0
22.462,50.49,939.804,0.433,0
22.473,50.36,939.806,0.965,0
22.485,50.2,939.801,0.31,0
22.497,50.09,939.803,0.95,0
22.508,49.96,939.806,0.878,0
22.52,49.89,939.81,0.456,0
22.531,49.78,939.807,0.619,0
22.543,49.71,939.813,0.065,0
22.554,49.63,939.81,0.313,0
22.566,49.57,939.803,0.616,0
22.577,49.52,939.806,0.34,0
22.589,49.43,939.812,0.592,0
22.6,49.23,939.813,0.612,0
22.612,49.5,939.815,0.424,0
22.623,50.05,939.811,0.773,0
22.634,50.61,939.812,0.117,0
22.646,51.18,939.802,0.133,0
22.657,51.74,939.802,0.595,0
22.669,52.22,939.813,0.216,0
22.68,52.7,939.804,0.238,0
22.691,53.13,939.807,0.672,0
22.703,53.51,939.8,0.051,0
22.714,54.1,939.806,0.532,0
22.725,54.45,939.806,0.74,0
22.736,54.71,939.809,0.641,0
22.748,54.87,939.801,0.838,0
22.759,55.24,939.793,0.659,0
22.77,55.5,939.795,0.583,0
22.781,55.66,939.801,0.11,0
22.793,55.84,939.791,0.619,0
22.804,55.94,939.791,0.08,0
22.815,56.1,939.788,0.718,0
22.826,56.19,939.787,0.096,0
22.837,56.29,939.795,0.191,0
22.848,56.39,939.79,0.531,0
22.859,56.51,939.784,0.492,0
22.87,56.6,939.778,0.547,0
22.881,56.71,939.786,0.346,0
22.892,56.75,939.8,0.977,0
22.904,56.85,939.79,0.824,0
22.915,57.07,939.804,0.824,0
22.926,56.85,939.808,0.193,0
22.937,56.27,939.811,0.714,0
22.947,55.58,939.812,0.459,0
22.958,54.37,939.804,0.773,0
22.969,53.86,939.807,0.189,0
22.98,53.35,939.825,0.739,0
22.991,52.9,939.82,0.019,0
23.002,52.52,939.815,0.183,0
23.013,52.15,939.804,0.868,0
23.024,51.86,939.808,0.331,0
23.035,51.58,939.807,0.496,0
23.045,51.37,939.817,0.286,0
23.056,51.11,939.81,0.493,0
23.067,50.96,939.802,0.057,0
23.078,50.77,939.814,0.527,0
23.089,50.62,939.813,0.015,0
23.099,50.44,939.807,0.599,0
23.11,50.31,939.816,0.507,0
23.121,50.19,939.808,0.09,0
23.131,50.08,939.813,0.426,0
23.142,50.0,939.79,0.691,0
23.153,49.85,939.791,0.624,0
23.163,49.71,939.812,0.427,0
23.174,49.66,939.8,0.259,0
23.185,49.6,939.808,0.325,0
23.195,49.53,939.801,0.822,0
23.206,49.45,939.805,0.217,0
23.216,49.31,939.811,0.805,0
23.227,49.97,939.817,0.37,0
23.238,50.61,939.821,0.735,0
23.248,51.19,939.827,0.782,0
23.259,51.75,939.821,0.309,0
23.269,52.63,939.825,0.373,0
23.28,53.07,939.822,0.966,0
23.29,53.48,939.816,0.794,0
23.3,53.84,939.821,0.496,0
23.311,54.17,939.804,0.878,0
23.321,54.43,939.798,0.855,0
23.332,54.71,939.807,0.536,0
23.342,54.92,939.791,0.755,0
23.353,55.14,939.802,0.485,0
23.363,55.36,939.8,0.149,0
23.373,55.55,939.797,0.094,0
23.384,55.74,939.796,0.292,0
23.394,55.89,939.789,0.433,0
23.404,56.0,939.803,0.573,0
23.414,56.17,939.794,0.407,0
23.425,56.27,939.806,0.747,0
23.435,56.37,939.799,0.632,0
23.445,56.48,939.803,0.901,0
23.455,56.57,939.793,0.274,0
23.466,56.66,939.783,0.004,0
23.476,56.77,939.784,0.095,0
23.486,56.81,939.773,0.564,0
23.496,56.85,939.767,0.685,0
23.506,57.1,939.781,0.583,0
23.516,56.91,939.784,0.584,0
23.526,56.32,939.781,0.853,0
23.537,55.64,939.779,0.578,0
23.547,54.43,939.785,0.856,0
23.557,53.91,939.773,0.831,0
23.567,53.4,939.774,0.693,0
23.577,52.96,939.773,0.631,0
23.587,52.56,939.786,0.682,0
23.597,52.25,939.795,0.123,0
23.607,51.91,939.795,0.742,0
23.617,51.63,939.806,0.265,0
23.627,51.38,939.799,0.602,0
23.637,51.16,939.785,0.852,0
23.646,50.96,939.79,0.477,0
23.656,50.8,939.784,0.376,0
23.666,50.63,939.787,0.559,0
23.676,50.51,939.789,0.757,0
23.686,50.4,939.793,0.863,0
23.696,50.17,939.788,0.693,0
23.706,50.08,939.785,0.957,0
23.716,49.88,939.791,0.594,0
23.725,49.81,939.802,0.8,0
23.735,49.74,939.794,0.212,0
23.745,49.67,939.806,0.033,0
23.755,49.61,939.798,0.507,0
23.764,49.54,939.784,0.322,0
23.774,49.35,939.782,0.36,0
23.784,49.59,939.784,0.332,0
23.793,50.13,939.781,0.635,0
23.803,50.75,939.772,0.369,0
23.813,51.3,939.786,0.309,0
23.822,51.89,939.781,0.775,0
23.832,52.39,939.779,0.295,0
23.842,52.85,939.787,0.938,0
23.851,53.25,939.787,0.624,0
23.861,53.66,939.79,0.784,0
23.87,53.99,939.781,0.514,0
23.88,54.3,939.782,0.579,0
23.89,54.58,939.782,0.156,0
23.899,54.85,939.795,0.121,0
23.909,55.04,939.786,0.846,0
23.918,55.25,939.787,0.23,0
23.928,55.5,939.784,0.606,0
23.937,55.71,939.795,0.842,0
23.946,55.83,939.784,0.118,0
23.956,55.98,939.794,0.009,0
23.965,56.13,939.79,0.478,0
23.975,56.23,939.791,0.439,0
23.984,56.37,939.791,0.503,0
23.993,56.47,939.803,0.341,0
24.003,56.57,939.81,0.972,0
24.012,56.66,939.809,0.832,0
24.021,56.76,939.808,0.775,0
24.031,56.83,939.805,0.059,0
24.04,56.9,939.805,0.987,0
24.049,56.96,939.813,0.215,0
24.059,57.2,939.814,0.96,0
24.068,56.96,939.808,0.462,0
24.077,56.37,939.816,0.264,0
24.086,55.13,939.813,0.332,0
24.095,54.47,939.812,0.615,0
24.105,53.94,939.804,0.71,0
24.114,53.43,939.81,0.374,0
24.123,53.03,939.82,0.636,0
24.132,52.6,939.825,0.025,0
24.141,52.25,939.822,0.286,0
24.15,51.92,939.825,0.194,0
24.159,51.65,939.825,0.917,0
24.169,51.26,939.824,0.513,0
24.178,51.06,939.821,0.49,0
24.187,50.88,939.827,0.421,0
24.196,50.74,939.823,0.15,0
24.205,50.58,939.818,0.729,0
24.214,50.41,939.803,0.007,0
24.223,50.31,939.799,0.106,0
24.232,50.21,939.795,0.776,0
24.241,50.08,939.805,0.63,0
24.25,50.0,939.801,0.677,0
24.259,49.86,939.805,0.191,0
24.267,49.84,939.796,0.566,0
24.276,49.76,939.796,0.993,0
24.285,49.7,939.794,0.398,0
24.294,49.62,939.796,0.055,0
24.303,49.56,939.801,0.839,0
24.312,49.41,939.801,0.055,0
24.321,49.61,939.793,0.405,0
24.329,50.14,939.803,0.98,0
24.338,50.76,939.807,0.966,0
24.347,51.4,939.806,0.614,0
24.356,52.37,939.809,0.393,0
24.365,52.86,939.809,0.748,0
24.373,53.27,939.813,0.279,0
24.382,53.64,939.82,0.019,0
24.391,54.0,939.815,0.587,0
24.399,54.34,939.815,0.997,0
24.408,54.6,939.811,0.945,0
24.417,54.81,939.82,0.232,0
24.425,55.06,939.811,0.54,0
24.434,55.27,939.806,0.052,0
24.443,55.52,939.822,0.874,0
24.451,55.67,939.839,0.901,0
24.46,55.85,939.848,0.31,0
24.468,55.98,939.843,0.748,0
24.477,56.15,939.85,0.955,0
24.485,56.23,939.842,0.879,0
24.494,56.36,939.848,0.924,0
24.503,56.46,939.849,0.379,0
24.511,56.57,939.841,0.456,0
24.52,56.67,939.843,0.829,0
24.528,56.75,939.839,0.74,0
24.536,56.82,939.847,0.159,0
24.545,56.9,939.85,0.368,0
24.553,56.97,939.842,0.531,0
24.562,57.22,939.844,0.396,0
24.57,56.97,939.846,0.167,0
24.578,56.35,939.843,0.592,0
24.587,55.68,939.843,0.862,0
24.595,55.0,939.847,0.279,0
24.604,54.41,939.846,0.119,0
24.612,53.86,939.851,0.878,0
24.62,53.34,939.837,0.551,0
24.628,52.92,939.826,0.399,0
24.637,52.55,939.836,0.236,0
24.645,52.17,939.832,0.863,0
24.653,51.9,939.831,0.615,0
24.661,51.64,939.838,0.243,0
24.67,51.38,939.837,0.773,0
24.678,51.15,939.825,0.623,0
24.686,50.98,939.834,0.622,0
24.694,50.83,939.838,0.953,0
24.702,50.65,939.83,0.185,0
24.71,50.49,939.833,0.576,0
24.719,50.37,939.833,0.328,0
24.727,50.24,939.83,0.443,0
24.735,50.13,939.83,0.08,0
24.743,50.05,939.827,0.625,0
24.751,49.98,939.834,0.191,0
24.759,49.9,939.829,0.126,0
24.767,49.82,939.822,0.114,0
24.775,49.73,939.827,0.777,0
24.783,49.67,939.829,0.789,0
24.791,49.59,939.836,0.184,0
24.799,49.53,939.838,0.821,0
24.807,49.37,939.842,0.257,0
24.815,49.64,939.842,0.2,0
24.823,50.15,939.839,0.263,0
24.831,50.81,939.844,0.599,0
24.839,51.38,939.837,0.194,0
24.847,51.89,939.852,0.681,0
24.854,52.44,939.844,0.467,0
24.862,52.9,939.848,0.332,0
24.87,53.26,939.84,0.98,0
24.878,53.68,939.834,0.934,0
24.886,54.05,939.819,0.69,0
24.894,54.33,939.827,0.115,0
24.901,54.6,939.831,0.505,0
24.909,54.84,939.831,0.849,0
24.917,55.1,939.84,0.087,0
24.925,55.32,939.836,0.358,0
24.932,55.48,939.842,0.946,0
24.94,55.67,939.85,0.87,0
24.948,55.85,939.832,0.351,0
24.956,56.0,939.83,0.017,0
24.963,56.15,939.835,0.517,0
24.971,56.29,939.842,0.843,0
24.979,56.38,939.839,0.598,0
24.986,56.46,939.824,0.878,0
24.994,56.61,939.83,0.766,0
25.001,56.66,939.834,0.03,0
25.009,56.76,939.815,0.382,0
25.016,56.85,939.818,0.082,0
25.024,56.91,939.824,0.629,0
25.032,57.0,939.841,0.722,0
25.039,57.22,939.833,0.572,0
25.047,56.93,939.818,0.826,0
25.054,55.72,939.821,0.643,0
25.062,55.07,939.817,0.434,0
25.069,54.47,939.818,0.967,0
25.077,53.91,939.841,0.986,0
25.084,53.42,939.839,0.515,0
25.091,52.94,939.843,0.176,0
25.099,52.56,939.835,0.474,0
25.106,52.26,939.829,0.715,0
25.114,51.95,939.829,0.219,0
25.121,51.68,939.82,0.025,0
25.128,51.44,939.817,0.268,0
25.136,51.23,939.818,0.079,0
25.143,51.03,939.835,0.334,0
25.15,50.85,939.838,0.867,0
25.158,50.57,939.824,0.753,0
25.165,50.45,939.827,0.964,0
25.172,50.31,939.831,0.283,0
25.179,50.19,939.834,0.143,0
25.187,50.11,939.834,0.163,0
25.194,50.02,939.828,0.683,0
25.201,49.93,939.828,0.537,0
25.208,49.84,939.83,0.037,0
25.215,49.77,939.825,0.342,0
25.223,49.64,939.812,0.968,0
25.23,49.62,939.827,0.298,0
25.237,49.44,939.826,0.075,0
25.244,49.74,939.843,0.546,0
25.251,50.26,939.841,0.895,0
25.258,50.89,939.83,0.118,0
25.265,51.46,939.835,0.107,0
25.272,51.99,939.828,0.045,0
25.279,52.52,939.834,0.379,0
25.286,52.98,939.83,0.356,0
25.293,53.44,939.814,0.758,0
25.3,53.81,939.821,0.856,0
25.307,54.17,939.817,0.29,0
25.314,54.46,939.817,0.45,0
25.321,54.76,939.815,0.288,0
25.328,55.01,939.815,0.972,0
25.335,55.23,939.835,0.033,0
25.342,55.45,939.831,0.58,0
25.349,55.66,939.829,0.515,0
25.356,55.86,939.826,0.673,0
25.363,56.01,939.835,0.707,0
25.37,56.16,939.844,0.002,0
25.376,56.28,939.837,0.25,0
25.383,56.42,939.842,0.822,0
25.39,56.56,939.845,0.076,0
25.397,56.64,939.838,0.95,0
25.404,56.76,939.827,0.147,0
25.41,56.86,939.816,0.872,0
25.417,56.96,939.823,0.403,0
25.424,57.01,939.824,0.354,0
25.431,57.09,939.823,0.834,0
25.437,57.14,939.827,0.068,0
25.444,57.39,939.829,0.068,0
25.451,57.16,939.828,0.352,0
25.457,56.51,939.827,0.389,0
25.464,55.84,939.831,0.841,0
25.471,55.2,939.825,0.702,0
25.477,54.57,939.83,0.446,0
25.484,54.0,939.825,0.53,0
25.491,53.51,939.816,0.186,0
25.497,53.1,939.817,0.782,0
25.504,52.7,939.82,0.051,0
25.51,52.38,939.829,0.141,0
25.517,52.07,939.85,0.755,0
25.523,51.83,939.852,0.717,0
25.53,51.57,939.847,0.212,0
25.536,51.35,939.842,0.738,0
25.543,51.18,939.832,0.676,0
25.549,51.01,939.838,0.623,0
25.556,50.86,939.832,0.725,0
25.562,50.68,939.829,0.183,0
25.569,50.59,939.833,0.711,0
25.575,50.49,939.825,0.903,0
25.582,50.39,939.818,0.576,0
25.588,50.23,939.821,0.584,0
25.594,50.15,939.821,0.172,0
25.601,50.12,939.812,0.218,0
25.607,50.0,939.817,0.521,0
25.613,49.98,939.809,0.27,0
25.62,49.89,939.804,0.258,0
25.626,49.81,939.808,0.443,0
25.632,49.74,939.816,0.254,0
25.639,49.6,939.819,0.986,0
25.645,49.86,939.824,0.051,0
25.651,50.41,939.823,0.792,0
25.657,51.04,939.82,0.051,0
25.664,51.64,939.824,0.251,0
25.67,52.17,939.823,0.927,0
25.676,52.71,939.816,0.74,0
25.682,53.2,939.824,0.623,0
25.688,53.6,939.836,0.334,0
25.694,53.98,939.83,0.483,0
25.701,54.32,939.833,0.486,0
25.707,54.64,939.827,0.758,0
25.713,54.91,939.829,0.354,0
25.719,55.54,939.828,0.785,0
25.725,55.77,939.832,0.544,0
25.731,55.97,939.838,0.609,0
25.737,56.11,939.835,0.949,0
25.743,56.24,939.835,0.859,0
25.749,56.39,939.835,0.305,0
25.755,56.55,939.835,0.66,0
25.761,56.65,939.835,0.351,0
25.767,56.75,939.835,0.381,0
25.773,56.93,939.825,0.291,0
25.779,57.02,939.832,0.969,0
25.785,57.24,939.828,0.434,0
25.791,57.44,939.83,0.328,0
25.797,57.21,939.839,0.697,0
25.803,56.63,939.839,0.948,0
25.809,55.88,939.83,0.957,0
25.815,55.23,939.83,0.976,0
25.82,54.63,939.838,0.801,0
25.826,54.06,939.844,0.018,0
25.832,53.56,939.843,0.416,0
25.838,53.13,939.832,0.918,0
25.844,52.74,939.839,0.871,0
25.85,52.4,939.832,0.573,0
25.855,52.13,939.831,0.395,0
25.861,51.84,939.827,0.27,0
25.867,51.64,939.827,0.845,0
25.873,51.42,939.843,0.961,0
25.878,51.06,939.837,0.02,0
25.884,50.93,939.833,0.205,0
25.89,50.78,939.823,0.594,0
25.895,50.63,939.825,0.142,0
25.901,50.5,939.824,0.434,0
25.907,50.43,939.825,0.004,0
25.912,50.36,939.838,0.988,0
25.918,50.25,939.834,0.718,0
25.923,50.14,939.831,0.572,0
25.929,50.07,939.839,0.13,0
25.935,50.0,939.833,0.196,0
25.94,49.94,939.835,0.144,0
25.946,49.85,939.834,0.82,0
25.951,49.83,939.824,0.351,0
25.957,50.37,939.818,0.375,0
25.962,50.95,939.828,0.731,0
25.968,51.57,939.836,0.316,0
25.973,52.62,939.856,0.4,0
25.979,53.08,939.85,0.934,0
25.984,53.51,939.845,0.006,0
25.99,53.94,939.842,0.55,0
25.995,54.57,939.842,0.018,0
26.001,54.85,939.843,0.281,0
26.006,55.12,939.828,0.343,0
26.011,55.39,939.832,0.169,0
26.017,55.63,939.836,0.966,0
26.022,55.81,939.837,0.403,0
26.027,56.03,939.838,0.252,0
26.033,56.16,939.836,0.528,0
26.038,56.36,939.844,0.649,0
26.043,56.49,939.845,0.958,0
26.049,56.61,939.841,0.269,0
26.054,56.7,939.84,0.63,0
26.059,56.83,939.839,0.126,0
26.064,56.95,939.839,0.821,0
26.07,57.04,939.847,0.308,0
26.075,57.15,939.838,0.802,0
26.08,57.23,939.845,0.96,0
26.085,57.28,939.838,0.336,0
26.09,57.35,939.841,0.952,0
26.096,57.59,939.851,0.654,0
26.101,57.34,939.856,0.414,0
26.106,56.7,939.861,0.294,0
26.111,56.01,939.856,0.304,0
26.116,55.31,939.852,0.789,0
26.121,54.71,939.848,0.491,0
26.126,54.18,939.836,0.434,0
26.131,53.71,939.833,0.984,0
26.137,53.23,939.844,0.798,0
26.142,52.85,939.839,0.831,0
26.147,52.5,939.834,0.499,0
26.152,52.18,939.831,0.503,0
26.157,51.97,939.841,0.087,0
26.162,51.72,939.838,0.021,0
26.167,51.48,939.844,0.28,0
26.172,51.33,939.835,0.92,0
26.176,51.17,939.835,0.931,0
26.181,51.04,939.821,0.228,0
26.186,50.86,939.805,0.833,0
26.191,50.71,939.809,0.987,0
26.196,50.59,939.81,0.211,0
26.201,50.52,939.813,0.228,0
26.206,50.41,939.819,0.59,0
26.211,50.32,939.813,0.247,0
26.216,50.28,939.817,0.799,0
26.22,50.17,939.818,0.622,0
26.225,50.12,939.812,0.238,0
26.23,50.04,939.814,0.652,0
26.235,49.99,939.805,0.612,0
26.24,49.93,939.802,0.451,0
26.244,49.78,939.795,0.948,0
26.249,50.02,939.798,0.357,0
26.254,50.6,939.81,0.693,0
26.259,51.19,939.81,0.218,0
26.263,51.8,939.812,0.795,0
26.268,52.39,939.81,0.47,0
26.273,52.9,939.806,0.406,0
26.277,53.36,939.803,0.897,0
26.282,53.76,939.792,0.345,0
26.287,54.15,939.795,0.878,0
26.291,54.51,939.795,0.101,0
26.296,54.79,939.794,0.019,0
26.3,55.1,939.804,0.582,0
26.305,55.35,939.797,0.03,0
26.31,55.59,939.801,0.259,0
26.314,55.77,939.798,0.696,0
26.319,56.0,939.788,0.576,0
26.323,56.17,939.792,0.154,0
26.328,56.33,939.793,0.897,0
26.332,56.43,939.793,0.351,0
26.337,56.57,939.79,0.154,0
26.341,56.73,939.788,0.821,0
26.346,56.81,939.79,0.44,0
26.35,56.95,939.784,0.746,0
26.355,57.0,939.788,0.767,0
26.359,57.08,939.791,0.544,0
26.363,57.2,939.785,0.763,0
26.368,57.26,939.782,0.656,0
26.372,57.33,939.773,0.655,0
26.377,57.39,939.781,0.914,0
26.381,57.58,939.788,0.835,0
26.385,57.32,939.787,0.16,0
26.39,56.72,939.797,0.989,0
26.394,55.99,939.798,0.556,0
26.398,55.3,939.796,0.984,0
26.402,54.7,939.793,0.654,0
26.407,54.12,939.788,0.243,0
26.411,53.66,939.783,0.12,0
26.415,53.2,939.793,0.08,0
26.419,52.8,939.789,0.789,0
26.424,52.46,939.79,0.867,0
26.428,52.19,939.796,0.55,0
26.432,51.94,939.789,0.424,0
